Time	Channel A
(us)	(V)

0.00000000	-1.49937400
0.04000000	-1.44517400
0.08000000	-1.37290600
0.12000000	-1.30063800
0.16000000	-1.21030300
0.20000000	-1.10196200
0.24000000	-0.99356060
0.28000000	-0.86709190
0.32000000	-0.74062320
0.36000000	-0.59608750
0.40000000	-0.45161290
0.44000000	-0.30707720
0.48000000	-0.16254160
0.52000000	-0.01800592
0.56000000	0.14447460
0.60000000	0.28901030
0.64000000	0.43354590
0.68000000	0.57808160
0.72000000	0.70448930
0.76000000	0.83095790
0.80000000	0.93935970
0.83999999	1.06582800
0.87999999	1.15616300
0.91999999	1.24643700
0.95999999	1.33677200
0.99999999	1.40904000
1.03999999	1.46324100
1.07999999	1.49937400
1.11999999	1.53550800
1.15999999	1.55357500
1.19999999	1.55357500
1.23999999	1.55357500
1.27999999	1.51744100
1.31999999	1.49937400
1.35999999	1.44517400
1.39999999	1.37290600
1.43999999	1.30063800
1.47999999	1.21030300
1.51999999	1.12002900
1.55999999	1.01162800
1.59999999	0.90322580
1.63999999	0.77675710
1.67999999	0.65028840
1.71999999	0.50581380
1.75999999	0.36127810
1.79999999	0.23480940
1.83999999	0.07220680
1.87999999	-0.05413984
1.91999999	-0.19867550
1.95999999	-0.34321110
1.99999999	-0.48774680
2.03999999	-0.61415450
2.07999999	-0.74062320
2.11999999	-0.86709190
2.15999999	-0.97549360
2.19999999	-1.08389500
2.23999999	-1.17416900
2.27999999	-1.26450400
2.31999999	-1.33677200
2.35999999	-1.39097300
2.39999999	-1.46324100
2.43999999	-1.48130700
2.47999998	-1.51744100
2.51999998	-1.51744100
2.55999998	-1.51744100
2.59999998	-1.49937400
2.63999998	-1.46324100
2.67999998	-1.42710600
2.71999998	-1.37290600
2.75999998	-1.30063800
2.79999998	-1.22837000
2.83999998	-1.13809600
2.87999998	-1.02969500
2.91999998	-0.92129280
2.95999998	-0.81289100
2.99999998	-0.68642230
3.03999998	-0.56001470
3.07999998	-0.43354590
3.11999998	-0.28901030
3.15999998	-0.14447460
3.19999998	0.00000000
3.23999998	0.14447460
3.27999998	0.27094330
3.31999998	0.41547900
3.35999998	0.56001470
3.39999998	0.66835530
3.43999998	0.79482410
3.47999998	0.90322580
3.51999998	1.01162800
3.55999998	1.12002900
3.59999998	1.21030300
3.63999998	1.28257100
3.67999998	1.33677200
3.71999998	1.40904000
3.75999998	1.44517400
3.79999998	1.46324100
3.83999998	1.48130700
3.87999998	1.48130700
3.91999998	1.46324100
3.95999998	1.44517400
3.99999998	1.40904000
4.03999998	1.35483900
4.07999998	1.30063800
4.11999997	1.22837000
4.15999997	1.15616300
4.19999997	1.06582800
4.23999997	0.93935970
4.27999997	0.84902500
4.31999997	0.72255620
4.35999997	0.61415450
4.39999997	0.48774680
4.43999997	0.34321110
4.47999997	0.19867550
4.51999997	0.07220680
4.55999997	-0.07220680
4.59999997	-0.21674250
4.63999997	-0.32514420
4.67999997	-0.46967990
4.71999997	-0.59608750
4.75999997	-0.72255620
4.79999997	-0.83095790
4.83999997	-0.93935970
4.87999997	-1.02969500
4.91999997	-1.12002900
4.95999997	-1.21030300
4.99999997	-1.28257100
5.03999997	-1.33677200
5.07999997	-1.39097300
5.11999997	-1.42710600
5.15999997	-1.44517400
5.19999997	-1.44517400
5.23999997	-1.44517400
5.27999997	-1.42710600
5.31999997	-1.39097300
5.35999997	-1.35483900
5.39999997	-1.30063800
5.43999997	-1.22837000
5.47999997	-1.15616300
5.51999997	-1.08389500
5.55999997	-0.97549360
5.59999997	-0.86709190
5.63999997	-0.75869010
5.67999997	-0.65028840
5.71999997	-0.52388070
5.75999996	-0.39741200
5.79999996	-0.27094330
5.83999996	-0.14447460
5.87999996	0.00000000
5.91999996	0.14447460
5.95999996	0.27094330
5.99999996	0.39741200
6.03999996	0.52388070
6.07999996	0.65028840
6.11999996	0.77675710
6.15999996	0.86709190
6.19999996	0.99356060
6.23999996	1.06582800
6.27999996	1.15616300
6.31999996	1.22837000
6.35999996	1.30063800
6.39999996	1.33677200
6.43999996	1.37290600
6.47999996	1.40904000
6.51999996	1.40904000
6.55999996	1.42710600
6.59999996	1.40904000
6.63999996	1.37290600
6.67999996	1.35483900
6.71999996	1.30063800
6.75999996	1.22837000
6.79999996	1.15616300
6.83999996	1.08389500
6.87999996	0.99356060
6.91999996	0.90322580
6.95999996	0.79482410
6.99999996	0.68642230
7.03999996	0.57808160
7.07999996	0.45161290
7.11999996	0.32514420
7.15999996	0.19867550
7.19999996	0.07220680
7.23999996	-0.07220680
7.27999996	-0.19867550
7.31999996	-0.32514420
7.35999996	-0.43354590
7.39999996	-0.57808160
7.43999995	-0.68642230
7.47999995	-0.79482410
7.51999995	-0.88515880
7.55999995	-0.99356060
7.59999995	-1.08389500
7.63999995	-1.15616300
7.67999995	-1.22837000
7.71999995	-1.28257100
7.75999995	-1.31870500
7.79999995	-1.35483900
7.83999995	-1.37290600
7.87999995	-1.39097300
7.91999995	-1.37290600
7.95999995	-1.35483900
7.99999995	-1.31870500
8.03999995	-1.28257100
8.07999995	-1.22837000
8.11999995	-1.15616300
8.15999995	-1.08389500
8.19999995	-1.01162800
8.23999995	-0.90322580
8.27999995	-0.81289100
8.31999995	-0.70448930
8.35999995	-0.59608750
8.39999995	-0.48774680
8.43999995	-0.36127810
8.47999995	-0.23480940
8.51999995	-0.10834070
8.55999995	0.00000000
8.59999995	0.14447460
8.63999995	0.27094330
8.67999995	0.37934510
8.71999995	0.50581380
8.75999995	0.61415450
8.79999995	0.72255620
8.83999995	0.83095790
8.87999995	0.93935970
8.91999995	1.01162800
8.95999995	1.10196200
8.99999995	1.17416900
9.03999995	1.22837000
9.07999994	1.28257100
9.11999994	1.31870500
9.15999994	1.33677200
9.19999994	1.35483900
9.23999994	1.35483900
9.27999994	1.33677200
9.31999994	1.30063800
9.35999994	1.28257100
9.39999994	1.22837000
9.43999994	1.17416900
9.47999994	1.10196200
9.51999994	1.02969500
9.55999994	0.93935970
9.59999994	0.83095790
9.63999994	0.74062320
9.67999994	0.63222150
9.71999994	0.52388070
9.75999994	0.41547900
9.79999994	0.28901030
9.83999994	0.16254160
9.87999994	0.05413984
9.91999994	-0.07220680
9.95999994	-0.21674250
9.99999994	-0.32514420
10.03999994	-0.43354590
10.07999994	-0.54194770
10.11999994	-0.65028840
10.15999994	-0.75869010
10.19999994	-0.86709190
10.23999994	-0.93935970
10.27999994	-1.02969500
10.31999994	-1.10196200
10.35999994	-1.15616300
10.39999994	-1.22837000
10.43999994	-1.26450400
10.47999994	-1.30063800
10.51999994	-1.30063800
10.55999994	-1.31870500
10.59999994	-1.30063800
10.63999994	-1.30063800
10.67999994	-1.26450400
10.71999993	-1.22837000
10.75999993	-1.15616300
10.79999993	-1.10196200
10.83999993	-1.02969500
10.87999993	-0.95742670
10.91999993	-0.86709190
10.95999993	-0.75869010
10.99999993	-0.65028840
11.03999993	-0.56001470
11.07999993	-0.43354590
11.11999993	-0.32514420
11.15999993	-0.21674250
11.19999993	-0.09027375
11.23999993	0.01800592
11.27999993	0.14447460
11.31999993	0.27094330
11.35999993	0.37934510
11.39999993	0.48774680
11.43999993	0.59608750
11.47999993	0.70448930
11.51999993	0.79482410
11.55999993	0.88515880
11.59999993	0.97549360
11.63999993	1.04776100
11.67999993	1.10196200
11.71999993	1.17416900
11.75999993	1.21030300
11.79999993	1.24643700
11.83999993	1.28257100
11.87999993	1.28257100
11.91999993	1.28257100
11.95999993	1.28257100
11.99999993	1.24643700
12.03999993	1.21030300
12.07999993	1.17416900
12.11999993	1.12002900
12.15999993	1.04776100
12.19999993	0.97549360
12.23999993	0.88515880
12.27999993	0.79482410
12.31999993	0.70448930
12.35999992	0.59608750
12.39999992	0.48774680
12.43999992	0.36127810
12.47999992	0.27094330
12.51999992	0.14447460
12.55999992	0.03607288
12.59999992	-0.09027375
12.63999992	-0.21674250
12.67999992	-0.32514420
12.71999992	-0.43354590
12.75999992	-0.52388070
12.79999992	-0.63222150
12.83999992	-0.72255620
12.87999992	-0.83095790
12.91999992	-0.90322580
12.95999992	-0.97549360
12.99999992	-1.04776100
13.03999992	-1.10196200
13.07999992	-1.15616300
13.11999992	-1.19223600
13.15999992	-1.22837000
13.19999992	-1.24643700
13.23999992	-1.24643700
13.27999992	-1.24643700
13.31999992	-1.22837000
13.35999992	-1.19223600
13.39999992	-1.15616300
13.43999992	-1.12002900
13.47999992	-1.04776100
13.51999992	-0.97549360
13.55999992	-0.90322580
13.59999992	-0.81289100
13.63999992	-0.72255620
13.67999992	-0.63222150
13.71999992	-0.52388070
13.75999992	-0.41547900
13.79999992	-0.30707720
13.83999992	-0.19867550
13.87999992	-0.07220680
13.91999992	0.03607288
13.95999992	0.14447460
13.99999991	0.27094330
14.03999991	0.36127810
14.07999991	0.48774680
14.11999991	0.57808160
14.15999991	0.68642230
14.19999991	0.77675710
14.23999991	0.84902500
14.27999991	0.93935970
14.31999991	0.99356060
14.35999991	1.06582800
14.39999991	1.12002900
14.43999991	1.15616300
14.47999991	1.19223600
14.51999991	1.21030300
14.55999991	1.21030300
14.59999991	1.22837000
14.63999991	1.21030300
14.67999991	1.17416900
14.71999991	1.15616300
14.75999991	1.10196200
14.79999991	1.06582800
14.83999991	0.99356060
14.87999991	0.92129280
14.91999991	0.84902500
14.95999991	0.75869010
14.99999991	0.65028840
15.03999991	0.56001470
15.07999991	0.45161290
15.11999991	0.34321110
15.15999991	0.23480940
15.19999991	0.12640770
15.23999991	0.01800592
15.27999991	-0.09027375
15.31999991	-0.19867550
15.35999991	-0.30707720
15.39999991	-0.41547900
15.43999991	-0.52388070
15.47999991	-0.61415450
15.51999991	-0.70448930
15.55999991	-0.79482410
15.59999991	-0.86709190
15.63999990	-0.93935970
15.67999990	-1.01162800
15.71999990	-1.06582800
15.75999990	-1.10196200
15.79999990	-1.15616300
15.83999990	-1.17416900
15.87999990	-1.17416900
15.91999990	-1.19223600
15.95999990	-1.17416900
15.99999990	-1.15616300
16.03999990	-1.13809600
16.07999990	-1.08389500
16.11999990	-1.04776100
16.15999990	-0.99356060
16.19999990	-0.92129280
16.23999990	-0.84902500
16.27999990	-0.75869010
16.31999990	-0.66835530
16.35999990	-0.57808160
16.39999990	-0.48774680
16.43999990	-0.37934510
16.47999990	-0.27094330
16.51999990	-0.16254160
16.55999990	-0.07220680
16.59999990	0.05413984
16.63999990	0.14447460
16.67999990	0.25287640
16.71999990	0.36127810
16.75999990	0.46967990
16.79999990	0.56001470
16.83999990	0.65028840
16.87999990	0.74062320
16.91999990	0.81289100
16.95999990	0.90322580
16.99999990	0.95742670
17.03999990	1.01162800
17.07999990	1.06582800
17.11999990	1.10196200
17.15999990	1.13809600
17.19999990	1.15616300
17.23999990	1.15616300
17.27999989	1.15616300
17.31999989	1.15616300
17.35999989	1.13809600
17.39999989	1.08389500
17.43999989	1.04776100
17.47999989	0.99356060
17.51999989	0.93935970
17.55999989	0.86709190
17.59999989	0.77675710
17.63999989	0.70448930
17.67999989	0.61415450
17.71999989	0.52388070
17.75999989	0.43354590
17.79999989	0.32514420
17.83999989	0.21674250
17.87999989	0.12640770
17.91999989	0.01800592
17.95999989	-0.09027375
17.99999989	-0.19867550
18.03999989	-0.30707720
18.07999989	-0.39741200
18.11999989	-0.50581380
18.15999989	-0.59608750
18.19999989	-0.66835530
18.23999989	-0.75869010
18.27999989	-0.83095790
18.31999989	-0.90322580
18.35999989	-0.95742670
18.39999989	-1.01162800
18.43999989	-1.06582800
18.47999989	-1.08389500
18.51999989	-1.12002900
18.55999989	-1.13809600
18.59999989	-1.13809600
18.63999989	-1.12002900
18.67999989	-1.10196200
18.71999989	-1.08389500
18.75999989	-1.02969500
18.79999989	-0.99356060
18.83999989	-0.93935970
18.87999989	-0.86709190
18.91999989	-0.79482410
18.95999988	-0.72255620
18.99999988	-0.63222150
19.03999988	-0.54194770
19.07999988	-0.45161290
19.11999988	-0.36127810
19.15999988	-0.25287640
19.19999988	-0.14447460
19.23999988	-0.03607288
19.27999988	0.05413984
19.31999988	0.14447460
19.35999988	0.25287640
19.39999988	0.36127810
19.43999988	0.43354590
19.47999988	0.54194770
19.51999988	0.63222150
19.55999988	0.72255620
19.59999988	0.79482410
19.63999988	0.84902500
19.67999988	0.92129280
19.71999988	0.99356060
19.75999988	1.01162800
19.79999988	1.06582800
19.83999988	1.08389500
19.87999988	1.10196200
19.91999988	1.12002900
19.95999988	1.12002900
19.99999988	1.08389500
20.03999988	1.06582800
20.07999988	1.04776100
20.11999988	1.01162800
20.15999988	0.93935970
20.19999988	0.88515880
20.23999988	0.81289100
20.27999988	0.74062320
20.31999988	0.66835530
20.35999988	0.57808160
20.39999988	0.50581380
20.43999988	0.39741200
20.47999988	0.28901030
20.51999988	0.19867550
20.55999988	0.10834070
20.59999987	0.00000000
20.63999987	-0.10834070
20.67999987	-0.19867550
20.71999987	-0.28901030
20.75999987	-0.37934510
20.79999987	-0.48774680
20.83999987	-0.57808160
20.87999987	-0.65028840
20.91999987	-0.72255620
20.95999987	-0.79482410
20.99999987	-0.86709190
21.03999987	-0.92129280
21.07999987	-0.97549360
21.11999987	-1.01162800
21.15999987	-1.04776100
21.19999987	-1.06582800
21.23999987	-1.06582800
21.27999987	-1.08389500
21.31999987	-1.06582800
21.35999987	-1.04776100
21.39999987	-1.01162800
21.43999987	-0.97549360
21.47999987	-0.93935970
21.51999987	-0.88515880
21.55999987	-0.81289100
21.59999987	-0.75869010
21.63999987	-0.66835530
21.67999987	-0.59608750
21.71999987	-0.50581380
21.75999987	-0.43354590
21.79999987	-0.32514420
21.83999987	-0.23480940
21.87999987	-0.14447460
21.91999987	-0.03607288
21.95999987	0.05413984
21.99999987	0.14447460
22.03999987	0.27094330
22.07999987	0.34321110
22.11999987	0.43354590
22.15999987	0.52388070
22.19999987	0.61415450
22.23999986	0.68642230
22.27999986	0.75869010
22.31999986	0.81289100
22.35999986	0.86709190
22.39999986	0.93935970
22.43999986	0.97549360
22.47999986	1.01162800
22.51999986	1.02969500
22.55999986	1.04776100
22.59999986	1.06582800
22.63999986	1.04776100
22.67999986	1.02969500
22.71999986	1.01162800
22.75999986	0.99356060
22.79999986	0.93935970
22.83999986	0.90322580
22.87999986	0.83095790
22.91999986	0.77675710
22.95999986	0.70448930
22.99999986	0.63222150
23.03999986	0.54194770
23.07999986	0.45161290
23.11999986	0.36127810
23.15999986	0.27094330
23.19999986	0.18060850
23.23999986	0.07220680
23.27999986	-0.01800592
23.31999986	-0.10834070
23.35999986	-0.19867550
23.39999986	-0.30707720
23.43999986	-0.37934510
23.47999986	-0.46967990
23.51999986	-0.56001470
23.55999986	-0.63222150
23.59999986	-0.70448930
23.63999986	-0.77675710
23.67999986	-0.83095790
23.71999986	-0.86709190
23.75999986	-0.93935970
23.79999986	-0.95742670
23.83999986	-1.01162800
23.87999985	-1.01162800
23.91999985	-1.02969500
23.95999985	-1.02969500
23.99999985	-1.01162800
24.03999985	-0.99356060
24.07999985	-0.97549360
24.11999985	-0.93935970
24.15999985	-0.88515880
24.19999985	-0.83095790
24.23999985	-0.77675710
24.27999985	-0.72255620
24.31999985	-0.65028840
24.35999985	-0.57808160
24.39999985	-0.48774680
24.43999985	-0.39741200
24.47999985	-0.30707720
24.51999985	-0.21674250
24.55999985	-0.12640770
24.59999985	-0.03607288
24.63999985	0.07220680
24.67999985	0.16254160
24.71999985	0.25287640
24.75999985	0.34321110
24.79999985	0.43354590
24.83999985	0.54194770
24.87999985	0.70448930
24.91999985	0.88515880
24.95999985	1.13809600
24.99999985	1.42710600
25.03999985	1.75225100
25.07999985	∞
25.11999985	∞
25.15999985	∞
25.19999985	∞
25.23999985	∞
25.27999985	∞
25.31999985	∞
25.35999985	∞
25.39999985	∞
25.43999985	1.89678600
25.47999985	1.44517400
25.51999984	0.95742670
25.55999984	0.46967990
25.59999984	-0.01800592
25.63999984	-0.48774680
25.67999984	-0.90322580
25.71999984	-1.22837000
25.75999984	-1.49937400
25.79999984	-1.66197700
25.83999984	-1.75225100
25.87999984	-1.75225100
25.91999984	-1.69811100
25.95999984	-1.58970900
25.99999984	-1.44517400
26.03999984	-1.28257100
26.07999984	-1.12002900
26.11999984	-1.01162800
26.15999984	-0.90322580
26.19999984	-0.86709190
26.23999984	-0.86709190
26.27999984	-0.92129280
26.31999984	-1.04776100
26.35999984	-1.22837000
26.39999984	-1.42710600
26.43999984	-1.66197700
26.47999984	-1.87871900
26.51999984	-∞
26.55999984	-∞
26.59999984	-∞
26.63999984	-∞
26.67999984	-∞
26.71999984	-∞
26.75999984	-∞
26.79999984	-1.82451900
26.83999984	-1.49937400
26.87999984	-1.12002900
26.91999984	-0.68642230
26.95999984	-0.27094330
26.99999984	0.16254160
27.03999984	0.56001470
27.07999984	0.93935970
27.11999984	1.24643700
27.15999983	1.48130700
27.19999983	1.66197700
27.23999983	1.78838500
27.27999983	1.86065200
27.31999983	1.87871900
27.35999983	1.87871900
27.39999983	1.87871900
27.43999983	1.87871900
27.47999983	1.87871900
27.51999983	1.91485300
27.55999983	1.93292000
27.59999983	1.98712100
27.63999983	∞
27.67999983	∞
27.71999983	∞
27.75999983	∞
27.79999983	∞
27.83999983	∞
27.87999983	∞
27.91999983	1.98712100
27.95999983	1.87871900
27.99999983	1.71617800
28.03999983	1.51744100
28.07999983	1.28257100
28.11999983	1.02969500
28.15999983	0.74062320
28.19999983	0.45161290
28.23999983	0.14447460
28.27999983	-0.16254160
28.31999983	-0.45161290
28.35999983	-0.74062320
28.39999983	-1.01162800
28.43999983	-1.22837000
28.47999983	-1.42710600
28.51999983	-1.58970900
28.55999983	-1.73424500
28.59999983	-1.82451900
28.63999983	-1.89678600
28.67999983	-1.95098700
28.71999983	-1.96905400
28.75999983	-1.98712100
28.79999982	-1.98712100
28.83999982	-1.98712100
28.87999982	-1.98712100
28.91999982	-1.96905400
28.95999982	-1.98712100
28.99999982	-1.96905400
29.03999982	-1.96905400
29.07999982	-1.96905400
29.11999982	-1.95098700
29.15999982	-1.93292000
29.19999982	-1.87871900
29.23999982	-1.84258600
29.27999982	-1.75225100
29.31999982	-1.64391000
29.35999982	-1.49937400
29.39999982	-1.31870500
29.43999982	-1.12002900
29.47999982	-0.90322580
29.51999982	-0.65028840
29.55999982	-0.39741200
29.59999982	-0.10834070
29.63999982	0.16254160
29.67999982	0.45161290
29.71999982	0.72255620
29.75999982	0.97549360
29.79999982	1.21030300
29.83999982	1.42710600
29.87999982	1.58970900
29.91999982	1.75225100
29.95999982	1.86065200
29.99999982	1.96905400
30.03999982	∞
30.07999982	∞
30.11999982	∞
30.15999982	∞
30.19999982	∞
30.23999982	∞
30.27999982	∞
30.31999982	∞
30.35999982	1.95098700
30.39999982	1.91485300
30.43999982	1.87871900
30.47999981	1.82451900
30.51999981	1.77031800
30.55999981	1.71617800
30.59999981	1.62584300
30.63999981	1.51744100
30.67999981	1.42710600
30.71999981	1.30063800
30.75999981	1.13809600
30.79999981	0.95742670
30.83999981	0.75869010
30.87999981	0.54194770
30.91999981	0.28901030
30.95999981	0.07220680
30.99999981	-0.19867550
31.03999981	-0.45161290
31.07999981	-0.70448930
31.11999981	-0.93935970
31.15999981	-1.17416900
31.19999981	-1.37290600
31.23999981	-1.57164200
31.27999981	-1.73424500
31.31999981	-1.86065200
31.35999981	-1.96905400
31.39999981	-∞
31.43999981	-∞
31.47999981	-∞
31.51999981	-∞
31.55999981	-∞
31.59999981	-∞
31.63999981	-∞
31.67999981	-1.98712100
31.71999981	-1.93292000
31.75999981	-1.86065200
31.79999981	-1.80645200
31.83999981	-1.71617800
31.87999981	-1.62584300
31.91999981	-1.55357500
31.95999981	-1.44517400
31.99999981	-1.33677200
32.03999981	-1.21030300
32.07999981	-1.08389500
32.11999980	-0.92129280
32.15999980	-0.75869010
32.19999980	-0.57808160
32.23999980	-0.37934510
32.27999980	-0.18060850
32.31999980	0.01800592
32.35999980	0.27094330
32.39999980	0.48774680
32.43999980	0.72255620
32.47999980	0.93935970
32.51999980	1.15616300
32.55999980	1.37290600
32.59999980	1.55357500
32.63999980	1.71617800
32.67999980	1.86065200
32.71999980	1.95098700
32.75999980	∞
32.79999980	∞
32.83999980	∞
32.87999980	∞
32.91999980	∞
32.95999980	∞
32.99999980	∞
33.03999980	1.98712100
33.07999980	1.91485300
33.11999980	1.82451900
33.15999980	1.73424500
33.19999980	1.62584300
33.23999980	1.51744100
33.27999980	1.42710600
33.31999980	1.30063800
33.35999980	1.17416900
33.39999980	1.04776100
33.43999980	0.90322580
33.47999980	0.75869010
33.51999980	0.59608750
33.55999980	0.43354590
33.59999980	0.23480940
33.63999980	0.05413984
